Voltage,Current,Power
-0.35668790598523525,8.229429810466423,-2.93533808654774
-0.3566338641034614,8.229430186192081,-2.9348934866713496
-0.3565796744901693,8.229430578025678,-2.934447676751842
-0.35652576424224014,8.2294309165557,-2.9340041468037397
-0.3564716483978884,8.229431201405033,-2.9335589057418674
-0.35641750580995174,8.229431499784626,-2.9331134493870867
-0.3563631911989164,8.229431844846497,-2.9326665939834835
-0.3563092745198344,8.22943216893087,-2.9322230058219456
-0.35625526771974386,8.22943247215652,-2.9317786685496743
-0.3562014028956701,8.229432719003773,-2.9313354795446727
-0.3561475015318858,8.229433011790704,-2.930892006173281
-0.35609345295598166,8.229433315964993,-2.9304473253529686
-0.35603954061645965,8.229433494422722,-2.930003720887972
-0.35598547573066863,8.22943364983783,-2.9295588528314926
-0.3559315258333539,8.229433816164496,-2.92911493493203
-0.3558772604960818,8.229433957718138,-2.9286684123061595
-0.3558231258755171,8.229434007042206,-2.9282229325720404
-0.35576899152694197,8.229434065997209,-2.9277774584972884
-0.3557147115964085,8.229434168589476,-2.927330801881435
-0.35566049788299364,8.22943434949554,-2.9268847180369937
-0.35560622480112053,8.229434471433152,-2.9264381246345477
-0.3555518346226234,8.229434568292247,-2.925990558663145
-0.35549795157304187,8.229434570875197,-2.9255471325505074
-0.35544349549800347,8.229434614957514,-2.925099005512765
-0.3553893951039561,8.229434666966887,-2.924653808340888
-0.35533491612830764,8.22943459090674,-2.92420545014324
-0.35528045023841437,8.229434488995649,-2.9237571904579096
-0.3552260483880743,8.229434291421732,-2.9233094238110544
-0.3551714409467695,8.229434134224094,-2.9228599796289023
-0.35511655173679574,8.229433915211473,-2.9224081947157368
-0.3550619161646293,8.229433668004525,-2.9219584871114
-0.3550071000684158,8.229433426884984,-2.9215072960845236
-0.35495244226930867,8.229433123941975,-2.9210573858351503
-0.35489758023701645,8.229432827539846,-2.9206057972169597
-0.3548427955066051,8.229432332246521,-2.9201547742067966
-0.354788030241094,8.229431942725911,-2.919703948962866
-0.35473320818594134,8.2294314551944,-2.9192526216474093
-0.3546782735725548,8.229431006148424,-2.918800381745176
-0.35462295494061263,8.229430494327524,-2.918344959376813
-0.35456764431689064,8.229429988235914,-2.9178896049995853
-0.35451228617771985,8.229429453254102,-2.917433849411375
-0.3544569832584729,8.229428786520083,-2.916978501610344
-0.35440142783633083,8.229428193279999,-2.916521101974988
-0.3543456866779932,8.229427638819017,-2.916062187644181
-0.3542899522594456,8.229426918845299,-2.915603270200297
-0.35423434826915584,8.229426339345485,-2.9151454759470727
-0.3541785653049437,8.22942573126591,-2.914686198783347
-0.35412254480559185,8.229424856951983,-2.91422487263023
-0.3540663362885296,8.229424056305541,-2.913762025380793
-0.3540098791376039,8.229423294613069,-2.9132971458981545
-0.3539533854422044,8.229422504082573,-2.9128319555542896
-0.35389688787424073,8.229421718756008,-2.9123667352724363
-0.35384009585177356,8.229420905246199,-2.9118990819169044
-0.3537831677514496,8.229420027929686,-2.911430286238187
-0.3537261510252086,8.229419155467168,-2.910960763036524
-0.35366920232864457,8.2294182201883,-2.91049177756281
-0.3536121918931352,8.229417323684386,-2.910022297831374
-0.35355493843318203,8.22941619362095,-2.909550735676686
-0.3534972935816805,8.229415102968689,-2.909075966659638
-0.353439698645896,8.229414018044393,-2.9086016105699226
-0.353381770196886,8.229412905863082,-2.9081245003549956
-0.3533237192966007,8.229411765654271,-2.907646372664173
-0.35326507618126995,8.229410563026782,-2.907163349474604
-0.3532064099056029,8.229409366653696,-2.9066801380392935
-0.35314755384770463,8.229408041357702,-2.9061953194201027
-0.35308877015036605,8.229406791427655,-2.9057111230522605
-0.3530296594152695,8.229405377021141,-2.905224177439961
-0.35297025180425495,8.229404036799501,-2.904734815068072
-0.3529109180721788,8.229402737875025,-2.904246075409177
-0.3528514554361916,8.229401513090387,-2.9037563012627405
-0.3527917131374716,8.229400124518202,-2.9032641680224986
-0.35273172235591727,8.22939877722276,-2.9027700046434637
-0.352671065917735,8.22939733514628,-2.902270330046606
-0.35261038539063705,8.229395833249638,-2.9017704362942576
-0.35254929767882065,8.229394270194101,-2.901267170279041
-0.3524879565924526,8.229392680132245,-2.9007618098167014
-0.35242642955168785,8.229391200660647,-2.9002549582329094
-0.3523643705524921,8.229389662778438,-2.8997437085561093
-0.3523022938676886,8.229388067507784,-2.8992322933103774
-0.3522401042173267,8.229386517261853,-2.8987199644849784
-0.3521777026819756,8.229384807879944,-2.89820583612511
-0.35211492203406075,8.229383109668094,-2.8976885920491973
-0.3520517190595999,8.22938142300044,-2.8971678767644415
-0.35198842971978134,8.229379611573693,-2.8966464070458082
-0.3519247081375166,8.229377880238916,-2.8961214086564153
-0.35186040286994125,8.229376126289084,-2.8955915991643537
-0.35179592140026367,8.229374349478789,-2.895060331822586
-0.3517309353147788,8.22937258602281,-2.894524916735603
-0.3516659056536163,8.229370700822646,-2.8939891004641307
-0.3516004862070507,8.229368931911187,-2.893450117637171
-0.35153463375109,8.229367040961263,-2.892907528747609
-0.35146848426109417,8.229365164655304,-2.8923625008524496
-0.3514019761259015,8.229363270299828,-2.891814515441271
-0.35133567791265197,8.229361325425497,-2.8912682400565273
-0.35126861552807354,8.229359432573201,-2.890715694562881
-0.3512011030038067,8.22935755923062,-2.890159451814508
-0.3511331154243933,8.229355603874135,-2.8895992711235143
-0.3510647353961078,8.229353703687917,-2.889035880466178
-0.3509962825638147,8.229351791994972,-2.8884718869001023
-0.3509270519325489,8.229349731582582,-2.8879014406261883
-0.350857395478674,8.22934786337436,-2.8873275578315187
-0.3507874336537115,8.229345780171455,-2.886751086875345
-0.3507172135183933,8.229343755566632,-2.886172511037319
-0.3506467473767114,8.229341790375324,-2.8855919318463505
-0.3505758488563671,8.229339851389307,-2.8850078039283362
-0.3505041534650395,8.229337802152406,-2.8844170799212776
-0.3504320300196124,8.229335677507377,-2.8838228071817325
-0.3503593991036896,8.22933358019374,-2.8832243681804934
-0.35028664925656533,8.229331477321047,-2.8826249488123703
-0.35021304115249946,8.229329370276814,-2.8820184654102263
-0.3501390516113568,8.229327395113643,-2.881408889524448
-0.3500645661205102,8.229325280556614,-2.8807951838025967
-0.34998979416762355,8.229323163631584,-2.8801791201782745
-0.3499145164383073,8.229321045780106,-2.879558894349731
-0.34983888808834385,8.22931903008578,-2.8789358192094574
-0.3497625449287493,8.229316914725928,-2.878306827119744
-0.34968592944383925,8.229314904146547,-2.877675630942524
-0.34960890964111363,8.22931286179238,-2.8770410967068263
-0.3495313908827486,8.229310754872396,-2.87640243415691
-0.34945295593713865,8.22930865313774,-2.875756234158057
-0.3493739406647411,8.229306694465933,-2.8751053087842977
-0.34929460766411036,8.229304641526577,-2.874451736110468
-0.349214680956554,8.22930259681945,-2.8737932808432456
-0.34913417315838496,8.229300424644716,-2.873129999430279
-0.34905282766071605,8.229298330702893,-2.872459851995455
-0.34897150010578165,8.22929638481491,-2.871789904223945
-0.3488895424675517,8.229294452001943,-2.8711147761897196
-0.348807271430252,8.22929243137742,-2.870437038790382
-0.34872425173242744,8.229290492552169,-2.869753169304034
-0.34864071150761483,8.229288432446982,-2.8690649742897
-0.34855630777858887,8.229286491434676,-2.868369715106689
-0.34847169764813835,8.229284636331078,-2.8676727876520336
-0.34838630210823274,8.229282731679868,-2.8669693798930855
-0.34830026148274446,8.229280948614406,-2.866260706217365
-0.3482131574399836,8.229279084023196,-2.865543253302533
-0.34812593708933276,8.229277343564847,-2.8648248867965274
-0.34803818371319406,8.229275524580393,-2.8641021068504022
-0.34795009025404894,8.229273764207402,-2.863376548981243
-0.3478608100991701,8.229271893609303,-2.8626411874372635
-0.3477711802653489,8.22927015245615,-2.8619029936420834
-0.34768112509054544,8.22926843859,-2.861161309401087
-0.34759055312708403,8.229266923495983,-2.8604154417683856
-0.347499137795747,8.22926530086296,-2.8596625967423366
-0.3474069643132844,8.229263674573183,-2.8589035117170534
-0.3473142630196871,8.229262181953631,-2.8581401299210074
-0.3472208178967,8.229260790136484,-2.8573706622364337
-0.3471267143443422,8.229259398187608,-2.8565957763801633
-0.34703212925015076,8.229257937752307,-2.8558169042868875
-0.34693662746023435,8.22925640947471,-2.855030465208673
-0.3468406891130223,8.229254951509246,-2.8542404582682175
-0.3467441353105681,8.229253631916103,-2.853445434850101
-0.3466468551151896,8.229252348472727,-2.8526444465473593
-0.346548898948528,8.229251068672518,-2.8518378970194584
-0.34645004871698415,8.22924982757218,-2.8510240036666152
-0.3463508387089446,8.22924855741326,-2.8502071398044553
-0.3462509996014483,8.229247327500763,-2.8493851131146863
-0.34615051247490564,8.229246241087893,-2.848557803634765
-0.3460491595910303,8.229245128377714,-2.847723360743688
-0.34594693804454063,8.229244092971465,-2.846881796384601
-0.34584427571080917,8.229243100761446,-2.8460366198310156
-0.34574110131824876,8.229242117399219,-2.845187232684123
-0.34563714646593663,8.22924114330001,-2.8443314263502972
-0.34553253458014527,8.229240281321935,-2.843470252074196
-0.3454269925967724,8.229239465025275,-2.842601439762353
-0.3453212722757309,8.229238626726133,-2.841731152441657
-0.345214675925285,8.229237869593339,-2.840853684263747
-0.3451073098513889,8.229237228323028,-2.8399699219954595
-0.344999260050848,8.22923656706072,-2.8390805264193295
-0.3448903095804623,8.229236022376144,-2.8381837593680004
-0.344780995420966,8.229235491370751,-2.83728400426835
-0.3446709240149159,8.229235008958758,-2.83637803447371
-0.34456014925456374,8.229234608771128,-2.835466305049001
-0.3444486717257307,8.229234257798256,-2.8345488094184885
-0.3443364928887953,8.229233785971717,-2.833625501023484
-0.3442238814210264,8.22923363610787,-2.832698743341517
-0.34411053247589,8.229233433083543,-2.8317658985267746
-0.34399653597323265,8.229233244264465,-2.8308277297427433
-0.3438815877163088,8.229233103137656,-2.8298817451945837
-0.3437660451292999,8.229232873863937,-2.8289308394962287
-0.3436498173473011,8.229232863916815,-2.827974370593421
-0.3435328515536302,8.229232765635265,-2.8270117980772493
-0.34341530841727214,8.229232783020274,-2.826044514218434
-0.34329699292945043,8.22923284869906,-2.8250708910746423
-0.3431781402345197,8.229233029293985,-2.8240928865495927
-0.34305887634353743,8.22923308563625,-2.8231114555274335
-0.342938825278456,8.229233324809659,-2.822123609352547
-0.34281814971306385,8.229233713315269,-2.821130675155106
-0.3426967096245644,8.229234012357622,-2.820131418765509
-0.3425748302571748,8.229234392697055,-2.8191285752246986
-0.34245195818440416,8.229234784384358,-2.8181175662716362
-0.34232838052323394,8.229235322891011,-2.817100801029872
-0.3422042564923171,8.229235768309643,-2.816079507594383
-0.3420792656676787,8.229236358601417,-2.815051130556135
-0.34195384214284497,8.229236992166369,-2.8140192073753187
-0.34182786217713584,8.22923756549856,-2.8129826843621504
-0.3417010570036411,8.229238214589385,-2.8119393962599495
-0.3415737499404929,8.229238836691605,-2.810891968604691
-0.3414458359171399,8.229239669699705,-2.809839617983104
-0.3413173557011844,8.229240473894391,-2.808782597978795
-0.34118822190867953,8.229241383928773,-2.8077202354399793
-0.34105823685069203,8.229242160212443,-2.806650821779436
-0.3409276892870233,8.229243006562937,-2.8055768028088983
-0.3407964580326208,8.229244023517994,-2.804497215501046
-0.3406648869899344,8.229245004926602,-2.8034148196158033
-0.34053209985674454,8.229245916085057,-2.802322392041984
-0.3403988341129791,8.229246891953743,-2.801226047648911
-0.34026502195780967,8.22924793299263,-2.8001252286159968
-0.3401305756463043,8.229249004071661,-2.7990192008916703
-0.33999564184739567,8.229250001759182,-2.797909136270795
-0.33985977585397914,8.229251094480784,-2.796791432416352
-0.33972351472184936,8.229252245717918,-2.795670496447963
-0.3395867871280263,8.22925345316819,-2.7945457406236014
-0.33944915082227195,8.229254614102674,-2.7934134906574157
-0.33931139760049994,8.229255897670674,-2.7922803198507933
-0.33917256048523453,8.229257064091762,-2.7911381893192067
-0.3390330525589922,8.22925824774797,-2.7899905440302573
-0.33889328966417676,8.229259515914253,-2.7888408288484117
-0.33875272229567766,8.229260764863872,-2.787684486578647
-0.3386116939018155,8.229262027312474,-2.7865243546301652
-0.3384697592106855,8.229263371352408,-2.7853567917829634
-0.33832728047535804,8.229264555464367,-2.7841846973625155
-0.3381845120994438,8.229265747510928,-2.7830102217586474
-0.33804100899576617,8.229267082922492,-2.7818297480067646
-0.3378969010825534,8.229268458053186,-2.780644310152574
-0.33775202879328,8.229269804170137,-2.7794525718457415
-0.33760660681765936,8.229271119639177,-2.7782562992839432
-0.33746087080641657,8.229272538156122,-2.777057476829495
-0.3373144108771755,8.229273819719575,-2.7758526504456724
-0.33716753610008604,8.229275167984744,-2.774644432279038
-0.3370199275606207,8.229276581478906,-2.7734301973663333
-0.3368718739656298,8.229277819035891,-2.7722122402824114
-0.3367233252986361,8.229279254301732,-2.7709902753195594
-0.33657410718624375,8.229280613458325,-2.7697627752598
-0.3364243671546345,8.22928189481166,-2.768530953599104
-0.33627394772171115,8.229283163600675,-2.767293536343811
-0.3361230839868055,8.22928452017968,-2.7660524919276734
-0.33597170634148643,8.229285827266958,-2.764807201358691
-0.3358197258760491,8.229287151421511,-2.7635569553456647
-0.3356671456001396,8.229288422040588,-2.762301754946641
-0.3355139497228601,8.229289602928958,-2.7610414580919618
-0.33536051781646764,8.229290828560842,-2.759779233528472
-0.3352064581055833,8.229291961691013,-2.758511811195192
-0.33505187910197326,8.229293136532272,-2.7572401290761093
-0.33489656742391793,8.229294316819846,-2.7559624190241223
-0.3347408501795732,8.229295468302661,-2.754681361438542
-0.3345849484585999,8.229296555611082,-2.7533987639096673
-0.334428256546951,8.229297474687465,-2.7521096070659556
-0.33427074045415833,8.22929849615619,-2.750813701728421
-0.3341130454143002,8.229299345176303,-2.749516265842761
-0.3339546890071438,8.229300327422623,-2.7482134315908087
-0.3337961250865487,8.229301374592543,-2.7469089110083997
-0.3336367279376537,8.229302246591802,-2.7455974747628713
-0.33347692669393864,8.229302906512755,-2.74428264209737
-0.333316488268127,8.229303625693317,-2.7429625854082613
-0.33315575606552367,8.22930437016918,-2.7416401193370312
-0.33299435896281665,8.229304967878784,-2.7403121324883184
-0.332832425597331,8.229305552884876,-2.738979728148258
-0.33267004720441856,8.22930612466036,-2.7376436569503726
-0.3325073506387492,8.229306681559699,-2.7363049622791724
-0.3323442486208497,8.229307051866476,-2.734962868822824
-0.33218087086195186,8.229307507439412,-2.733618534412022
-0.33201653677212256,8.229307910212855,-2.7322663123803053
-0.33185189175281693,8.22930819198571,-2.7309114913274115
-0.3316868823778078,8.22930845358327,-2.7295536650943735
-0.3315214407234817,8.229308591714663,-2.7281922404833714
-0.3313556248894797,8.229308775802691,-2.72682775181458
-0.33118895145120725,8.229308868365068,-2.725456175281948
-0.33102167154434187,8.229308903472583,-2.72407958888223
-0.3308541799521753,8.229308846409557,-2.722701229952016
-0.3306864438364739,8.22930883329125,-2.7213208733131657
-0.33051812803036756,8.229308726874219,-2.7199357153904344
-0.3303490534000986,8.22930859333826,-2.7185443039465915
-0.3301796669709788,8.229308397948339,-2.7171503062360616
-0.33000998795147013,8.22930807203669,-2.7157538577017637
-0.3298398565152723,8.229307683318316,-2.714353665485741
-0.3296692947639929,8.229307197095075,-2.7129499000625845
-0.32949798103716604,8.22930671496374,-2.7115399479161457
-0.3293264903328415,8.229306100903523,-2.710128496085198
-0.32915441213494195,8.229305525591194,-2.708712222554799
-0.3289821763410737,8.229304817469675,-2.7072946086252556
-0.3288092671604346,8.22930394248876,-2.705871398570205
-0.3286356871567997,8.229303173760101,-2.7044427033302836
-0.3284617217335429,8.22930237411001,-2.7030108264661057
-0.32828733559630896,8.229301406625334,-2.7015754325999883
-0.3281126374390522,8.229300372797635,-2.7001374495968076
-0.3279375399165396,8.22929917127781,-2.6986961254660633
-0.3277618816071879,8.229297972481136,-2.6972501877666337
-0.32758596807228996,8.22929687854508,-2.695802184512464
-0.32740940694172144,8.229295651225543,-2.6943488087158425
-0.32723271710648616,8.22929432513585,-2.6928943418831914
-0.32705522000721127,8.229292935720673,-2.6914332115959145
-0.3268773320409935,8.229291550317633,-2.6899688665553194
-0.3266991799377584,8.229290065462855,-2.688502315856657
-0.32652035319401845,8.229288447730212,-2.687030170488325
-0.3263412824562213,8.229286800305994,-2.685556008111912
-0.32616162877386995,8.229285088913196,-2.6840770282444493
-0.32598153549485837,8.229283279306154,-2.6825943994103834
-0.325801218053445,8.229281407729284,-2.681109906342769
-0.3256204291222213,8.229279441005515,-2.679621502946889
-0.3254393462949389,8.229277549168483,-2.6781307060810082
-0.3252575735495294,8.229275425952599,-2.676634157116112
-0.3250754174919454,8.229273311188367,-2.6751344572898823
-0.32489297122470634,8.22927107010378,-2.6736323289795356
-0.32470991446826686,8.229268771088224,-2.6721251587964368
-0.3245265350892997,8.229266483484981,-2.6706153382118867
-0.32434245622492197,8.229264140114195,-2.6690997441283084
-0.3241583422184974,8.229261741509566,-2.6675838438098456
-0.32397339101997485,8.229259288344197,-2.6660610372274944
-0.32378826693793145,8.229256883453182,-2.664536824480349
-0.32360269895225163,8.229254323679562,-2.6630089095071927
-0.3234169739190119,8.229251848194062,-2.6614797303603597
-0.3232306084936943,8.229249288435147,-2.659945254947193
-0.32304389285817353,8.229246612176828,-2.658407860887539
-0.3228567205815165,8.229243956638326,-2.656866716705513
-0.322669232400193,8.229241220643377,-2.655322947901026
-0.3224810152333155,8.229238337339916,-2.653773133622298
-0.32229296962678816,8.229235443864631,-2.6522247289611522
-0.3221040075172304,8.229232610126575,-2.650668802513248
-0.32191466841125216,8.22922956440098,-2.6491097065042144
-0.3217246451754257,8.229226546543536,-2.647544990754913
-0.3215346722831924,8.229223318887342,-2.6459806229836462
-0.32134434103323284,8.229220224174451,-2.6444133501546916
-0.32115347726341836,8.229217127020958,-2.642841695498458
-0.32096222461827406,8.229213824470301,-2.641266775961443
-0.3207704563733232,8.229210692872607,-2.6396876695449776
-0.32057844074761693,8.229207392547176,-2.638106474491536
-0.32038616266785475,8.229204265757643,-2.6365231765160324
-0.3201930546869508,8.229201041127725,-2.634933018991722
-0.31999974517768215,8.22919765224403,-2.63334115173487
-0.3198057127011086,8.229194373459764,-2.6317433715602525
-0.3196114766757869,8.229191035482998,-2.6301438986978685
-0.3194175062322549,8.229187605920892,-2.6285465834006314
-0.319222605580658,8.229184222459377,-2.6269416292967236
-0.3190275302042764,8.229180886985105,-2.6253352539790944
-0.31883183238161406,8.229177396884953,-2.6237237084421907
-0.31863596033897384,8.229173956585358,-2.6221107464530484
-0.31843989737186634,8.229170431007217,-2.6204961875055353
-0.318243271632069,8.229166890963157,-2.6188769941864165
-0.3180461225797114,8.229163440661717,-2.6172535243771757
-0.31784848700293206,8.229159910572402,-2.615626026880622
